# Pulseq sequence file
# Created by PyPulseq

[VERSION]
major 1
minor 4
revision 2

[DEFINITIONS]
AdcRasterTime 1e-07 
BlockDurationRaster 1e-05 
FOV 0.2 0.2 0.008 
GradientRasterTime 1e-05 
Name gre 
RadiofrequencyRasterTime 1e-06 
TotalDuration 0.67584 

# Format of blocks:
# NUM DUR RF  GX  GY  GZ  ADC  EXT
[BLOCKS]
  1 112   1   0   0   0  0  0
  2 100   0   1   2   0  0  0
  3 644   0   3   0   0  1  0
  4 200   0   4   5   0  0  0
  5 112   2   0   0   0  0  0
  6 100   0   1   6   0  0  0
  7 644   0   3   0   0  2  0
  8 200   0   4   7   0  0  0
  9 112   3   0   0   0  0  0
 10 100   0   1   8   0  0  0
 11 644   0   3   0   0  3  0
 12 200   0   4   9   0  0  0
 13 112   4   0   0   0  0  0
 14 100   0   1  10   0  0  0
 15 644   0   3   0   0  4  0
 16 200   0   4  11   0  0  0
 17 112   5   0   0   0  0  0
 18 100   0   1  12   0  0  0
 19 644   0   3   0   0  5  0
 20 200   0   4  13   0  0  0
 21 112   6   0   0   0  0  0
 22 100   0   1  14   0  0  0
 23 644   0   3   0   0  6  0
 24 200   0   4  15   0  0  0
 25 112   7   0   0   0  0  0
 26 100   0   1  16   0  0  0
 27 644   0   3   0   0  7  0
 28 200   0   4  17   0  0  0
 29 112   8   0   0   0  0  0
 30 100   0   1  18   0  0  0
 31 644   0   3   0   0  8  0
 32 200   0   4  19   0  0  0
 33 112   9   0   0   0  0  0
 34 100   0   1  20   0  0  0
 35 644   0   3   0   0  9  0
 36 200   0   4  21   0  0  0
 37 112  10   0   0   0  0  0
 38 100   0   1  22   0  0  0
 39 644   0   3   0   0 10  0
 40 200   0   4  23   0  0  0
 41 112   6   0   0   0  0  0
 42 100   0   1  24   0  0  0
 43 644   0   3   0   0  6  0
 44 200   0   4  25   0  0  0
 45 112  11   0   0   0  0  0
 46 100   0   1  26   0  0  0
 47 644   0   3   0   0 11  0
 48 200   0   4  27   0  0  0
 49 112  12   0   0   0  0  0
 50 100   0   1  28   0  0  0
 51 644   0   3   0   0 12  0
 52 200   0   4  29   0  0  0
 53 112  13   0   0   0  0  0
 54 100   0   1  30   0  0  0
 55 644   0   3   0   0 13  0
 56 200   0   4  31   0  0  0
 57 112  14   0   0   0  0  0
 58 100   0   1  32   0  0  0
 59 644   0   3   0   0 14  0
 60 200   0   4  33   0  0  0
 61 112   1   0   0   0  0  0
 62 100   0   1  34   0  0  0
 63 644   0   3   0   0  1  0
 64 200   0   4  35   0  0  0
 65 112  15   0   0   0  0  0
 66 100   0   1  36   0  0  0
 67 644   0   3   0   0 15  0
 68 200   0   4  37   0  0  0
 69 112  16   0   0   0  0  0
 70 100   0   1  38   0  0  0
 71 644   0   3   0   0 16  0
 72 200   0   4  39   0  0  0
 73 112  13   0   0   0  0  0
 74 100   0   1  40   0  0  0
 75 644   0   3   0   0 13  0
 76 200   0   4  41   0  0  0
 77 112  17   0   0   0  0  0
 78 100   0   1  42   0  0  0
 79 644   0   3   0   0 17  0
 80 200   0   4  43   0  0  0
 81 112   5   0   0   0  0  0
 82 100   0   1  44   0  0  0
 83 644   0   3   0   0  5  0
 84 200   0   4  45   0  0  0
 85 112  18   0   0   0  0  0
 86 100   0   1  46   0  0  0
 87 644   0   3   0   0 18  0
 88 200   0   4  47   0  0  0
 89 112  19   0   0   0  0  0
 90 100   0   1  48   0  0  0
 91 644   0   3   0   0 19  0
 92 200   0   4  49   0  0  0
 93 112   9   0   0   0  0  0
 94 100   0   1  50   0  0  0
 95 644   0   3   0   0  9  0
 96 200   0   4  51   0  0  0
 97 112  20   0   0   0  0  0
 98 100   0   1  52   0  0  0
 99 644   0   3   0   0 20  0
100 200   0   4  53   0  0  0
101 112  10   0   0   0  0  0
102 100   0   1  54   0  0  0
103 644   0   3   0   0 10  0
104 200   0   4  55   0  0  0
105 112  18   0   0   0  0  0
106 100   0   1  56   0  0  0
107 644   0   3   0   0 18  0
108 200   0   4  57   0  0  0
109 112  21   0   0   0  0  0
110 100   0   1  58   0  0  0
111 644   0   3   0   0 21  0
112 200   0   4  59   0  0  0
113 112   4   0   0   0  0  0
114 100   0   1  60   0  0  0
115 644   0   3   0   0  4  0
116 200   0   4  61   0  0  0
117 112  22   0   0   0  0  0
118 100   0   1  62   0  0  0
119 644   0   3   0   0 22  0
120 200   0   4  63   0  0  0
121 112  14   0   0   0  0  0
122 100   0   1  64   0  0  0
123 644   0   3   0   0 14  0
124 200   0   4  65   0  0  0
125 112  15   0   0   0  0  0
126 100   0   1  66   0  0  0
127 644   0   3   0   0 15  0
128 200   0   4  67   0  0  0
129 112  23   0   0   0  0  0
130 100   0   1  68   0  0  0
131 644   0   3   0   0 23  0
132 200   0   4  68   0  0  0
133 112   2   0   0   0  0  0
134 100   0   1  67   0  0  0
135 644   0   3   0   0  2  0
136 200   0   4  66   0  0  0
137 112  22   0   0   0  0  0
138 100   0   1  65   0  0  0
139 644   0   3   0   0 22  0
140 200   0   4  64   0  0  0
141 112  17   0   0   0  0  0
142 100   0   1  63   0  0  0
143 644   0   3   0   0 17  0
144 200   0   4  62   0  0  0
145 112  11   0   0   0  0  0
146 100   0   1  61   0  0  0
147 644   0   3   0   0 11  0
148 200   0   4  60   0  0  0
149 112  24   0   0   0  0  0
150 100   0   1  59   0  0  0
151 644   0   3   0   0 24  0
152 200   0   4  58   0  0  0
153 112   7   0   0   0  0  0
154 100   0   1  57   0  0  0
155 644   0   3   0   0  7  0
156 200   0   4  56   0  0  0
157 112  20   0   0   0  0  0
158 100   0   1  55   0  0  0
159 644   0   3   0   0 20  0
160 200   0   4  54   0  0  0
161 112  20   0   0   0  0  0
162 100   0   1  53   0  0  0
163 644   0   3   0   0 20  0
164 200   0   4  52   0  0  0
165 112   7   0   0   0  0  0
166 100   0   1  51   0  0  0
167 644   0   3   0   0  7  0
168 200   0   4  50   0  0  0
169 112  24   0   0   0  0  0
170 100   0   1  49   0  0  0
171 644   0   3   0   0 24  0
172 200   0   4  48   0  0  0
173 112  11   0   0   0  0  0
174 100   0   1  47   0  0  0
175 644   0   3   0   0 11  0
176 200   0   4  46   0  0  0
177 112  17   0   0   0  0  0
178 100   0   1  45   0  0  0
179 644   0   3   0   0 17  0
180 200   0   4  44   0  0  0
181 112  22   0   0   0  0  0
182 100   0   1  43   0  0  0
183 644   0   3   0   0 22  0
184 200   0   4  42   0  0  0
185 112   2   0   0   0  0  0
186 100   0   1  41   0  0  0
187 644   0   3   0   0  2  0
188 200   0   4  40   0  0  0
189 112  23   0   0   0  0  0
190 100   0   1  39   0  0  0
191 644   0   3   0   0 23  0
192 200   0   4  38   0  0  0
193 112  15   0   0   0  0  0
194 100   0   1  37   0  0  0
195 644   0   3   0   0 15  0
196 200   0   4  36   0  0  0
197 112  14   0   0   0  0  0
198 100   0   1  35   0  0  0
199 644   0   3   0   0 14  0
200 200   0   4  34   0  0  0
201 112  22   0   0   0  0  0
202 100   0   1  33   0  0  0
203 644   0   3   0   0 22  0
204 200   0   4  32   0  0  0
205 112   4   0   0   0  0  0
206 100   0   1  31   0  0  0
207 644   0   3   0   0  4  0
208 200   0   4  30   0  0  0
209 112  21   0   0   0  0  0
210 100   0   1  29   0  0  0
211 644   0   3   0   0 21  0
212 200   0   4  28   0  0  0
213 112  18   0   0   0  0  0
214 100   0   1  27   0  0  0
215 644   0   3   0   0 18  0
216 200   0   4  26   0  0  0
217 112  10   0   0   0  0  0
218 100   0   1  25   0  0  0
219 644   0   3   0   0 10  0
220 200   0   4  24   0  0  0
221 112  20   0   0   0  0  0
222 100   0   1  23   0  0  0
223 644   0   3   0   0 20  0
224 200   0   4  22   0  0  0
225 112   9   0   0   0  0  0
226 100   0   1  21   0  0  0
227 644   0   3   0   0  9  0
228 200   0   4  20   0  0  0
229 112  19   0   0   0  0  0
230 100   0   1  19   0  0  0
231 644   0   3   0   0 19  0
232 200   0   4  18   0  0  0
233 112  18   0   0   0  0  0
234 100   0   1  17   0  0  0
235 644   0   3   0   0 18  0
236 200   0   4  16   0  0  0
237 112   5   0   0   0  0  0
238 100   0   1  15   0  0  0
239 644   0   3   0   0  5  0
240 200   0   4  14   0  0  0
241 112  17   0   0   0  0  0
242 100   0   1  13   0  0  0
243 644   0   3   0   0 17  0
244 200   0   4  12   0  0  0
245 112  13   0   0   0  0  0
246 100   0   1  11   0  0  0
247 644   0   3   0   0 13  0
248 200   0   4  10   0  0  0
249 112  16   0   0   0  0  0
250 100   0   1   9   0  0  0
251 644   0   3   0   0 16  0
252 200   0   4   8   0  0  0
253 112  15   0   0   0  0  0
254 100   0   1   7   0  0  0
255 644   0   3   0   0 15  0
256 200   0   4   6   0  0  0

# Format of RF events:
# id amplitude mag_id phase_id time_shape_id delay freq phase
# ..        Hz   ....     ....          ....    us   Hz   rad
[RF]
1      109.716 1 2 0 100 0 0
2      109.716 1 2 0 100 0 2.04204
3      109.716 1 2 0 100 0 6.12611
4      109.716 1 2 0 100 0 5.96903
5      109.716 1 2 0 100 0 1.5708
6      109.716 1 2 0 100 0 5.49779
7      109.716 1 2 0 100 0 5.18363
8      109.716 1 2 0 100 0 0.628319
9      109.716 1 2 0 100 0 4.39823
10      109.716 1 2 0 100 0 3.92699
11      109.716 1 2 0 100 0 2.82743
12      109.716 1 2 0 100 0 2.19911
13      109.716 1 2 0 100 0 3.61283
14      109.716 1 2 0 100 0 0.785398
15      109.716 1 2 0 100 0 1.25664
16      109.716 1 2 0 100 0 4.55531
17      109.716 1 2 0 100 0 4.71239
18      109.716 1 2 0 100 0 0.471239
19      109.716 1 2 0 100 0 1.41372
20      109.716 1 2 0 100 0 3.14159
21      109.716 1 2 0 100 0 5.34071
22      109.716 1 2 0 100 0 2.35619
23      109.716 1 2 0 100 0 3.76991
24      109.716 1 2 0 100 0 2.98451

# Format of trapezoid gradients:
# id amplitude rise flat fall delay
# ..      Hz/m   us   us   us    us
[TRAP]
 1      -190774 160  680 160   0
 2      -190476 160  680 160   0
 3        50000  10 6400  10   0
 4       265608 190 1620 190   0
 5       190476 160  680 160   0
 6      -184524 160  680 160   0
 7       184524 160  680 160   0
 8      -178571 160  680 160   0
 9       178571 160  680 160   0
10      -172619 160  680 160   0
11       172619 160  680 160   0
12      -164706 150  700 150   0
13       164706 150  700 150   0
14      -158824 150  700 150   0
15       158824 150  700 150   0
16      -152941 150  700 150   0
17       152941 150  700 150   0
18      -145349 140  720 140   0
19       145349 140  720 140   0
20      -139535 140  720 140   0
21       139535 140  720 140   0
22      -133721 140  720 140   0
23       133721 140  720 140   0
24      -127907 140  720 140   0
25       127907 140  720 140   0
26      -120690 130  740 130   0
27       120690 130  740 130   0
28      -114943 130  740 130   0
29       114943 130  740 130   0
30      -109195 130  740 130   0
31       109195 130  740 130   0
32      -102273 120  760 120   0
33       102273 120  760 120   0
34     -96590.9 120  760 120   0
35      96590.9 120  760 120   0
36     -90909.1 120  760 120   0
37      90909.1 120  760 120   0
38     -84269.7 110  780 110   0
39      84269.7 110  780 110   0
40     -78651.7 110  780 110   0
41      78651.7 110  780 110   0
42     -73033.7 110  780 110   0
43      73033.7 110  780 110   0
44     -66666.7 100  800 100   0
45      66666.7 100  800 100   0
46     -61111.1 100  800 100   0
47      61111.1 100  800 100   0
48     -54945.1  90  820  90   0
49      54945.1  90  820  90   0
50     -49450.5  90  820  90   0
51      49450.5  90  820  90   0
52     -43478.3  80  840  80   0
53      43478.3  80  840  80   0
54     -38043.5  80  840  80   0
55      38043.5  80  840  80   0
56     -32258.1  70  860  70   0
57      32258.1  70  860  70   0
58     -26881.7  70  860  70   0
59      26881.7  70  860  70   0
60     -21276.6  60  880  60   0
61      21276.6  60  880  60   0
62     -15789.5  50  900  50   0
63      15789.5  50  900  50   0
64     -10416.7  40  920  40   0
65      10416.7  40  920  40   0
66     -5154.64  30  940  30   0
67      5154.64  30  940  30   0
68            0  10  980  10   0

# Format of ADC events:
# id num dwell delay freq phase
# ..  ..    ns    us   Hz   rad
[ADC]
1 64 100000 20 0 0
2 64 100000 20 0 2.04204
3 64 100000 20 0 6.12611
4 64 100000 20 0 5.96903
5 64 100000 20 0 1.5708
6 64 100000 20 0 5.49779
7 64 100000 20 0 5.18363
8 64 100000 20 0 0.628319
9 64 100000 20 0 4.39823
10 64 100000 20 0 3.92699
11 64 100000 20 0 2.82743
12 64 100000 20 0 2.19911
13 64 100000 20 0 3.61283
14 64 100000 20 0 0.785398
15 64 100000 20 0 1.25664
16 64 100000 20 0 4.55531
17 64 100000 20 0 4.71239
18 64 100000 20 0 0.471239
19 64 100000 20 0 1.41372
20 64 100000 20 0 3.14159
21 64 100000 20 0 5.34071
22 64 100000 20 0 2.35619
23 64 100000 20 0 3.76991
24 64 100000 20 0 2.98451

# Sequence Shapes
[SHAPES]

shape_id 1
num_samples 1000
2.46987503e-09
6.68164436e-08
3.09920458e-07
8.51983185e-07
1.8139994e-06
3.31769462e-06
5.48546172e-06
8.44029687e-06
1.23057349e-05
1.72057839e-05
2.32648598e-05
3.06077193e-05
3.93593938e-05
4.96451212e-05
6.15902785e-05
7.53203133e-05
9.0960675e-05
0.000108636746
0.00012847377
0.000150596786
0.000175130554
0.000202199487
0.000231927578
0.000264438332
0.00029985469
0.000338298962
0.00037989275
0.000424756882
0.000473011336
0.000524775166
0.000580166435
0.000639302138
0.000702298131
0.000769269059
0.000840328283
0.000915587807
0.000995158206
0.00107914855
0.00116766635
0.00126081745
0.001358706
0.00146143433
0.00156910294
0.00168181038
0.00179965321
0.0019227259
0.00205112078
0.00218492798
0.00232423533
0.00246912832
0.00261969001
0.00277600097
0.00293813921
0.00310618011
0.00328019639
0.00346025796
0.00364643195
0.00383878258
0.00403737111
0.0042422558
0.00445349183
0.00467113121
0.00489522278
0.00512581209
0.00536294137
0.00560664948
0.00585697182
0.00611394028
0.00637758323
0.00664792539
0.00692498783
0.00720878789
0.00749933914
0.00779665132
0.0081007303
0.00841157802
0.00872919243
0.00905356747
0.00938469301
0.00972255481
0.0100671344
0.0104184093
0.0107763526
0.011140933
0.0115121153
0.0118898595
0.0122741214
0.0126648523
0.0130619991
0.0134655042
0.0138753055
0.014291336
0.0147135246
0.0151417953
0.0155760675
0.0160162559
0.0164622705
0.0169140168
0.0173713952
0.0178343015
0.018302627
0.0187762578
0.0192550753
0.0197389563
0.0202277726
0.0207213911
0.0212196741
0.0217224788
0.0222296577
0.0227410583
0.0232565234
0.0237758909
0.0242989938
0.0248256602
0.0253557136
0.0258889722
0.0264252499
0.0269643554
0.0275060927
0.0280502611
0.0285966549
0.0291450639
0.029695273
0.0302470623
0.0308002074
0.031354479
0.0319096433
0.0324654619
0.0330216916
0.0335780848
0.0341343894
0.0346903485
0.0352457012
0.0358001817
0.0363535202
0.0369054422
0.0374556692
0.0380039182
0.0385499021
0.0390933297
0.0396339054
0.0401713298
0.0407052993
0.0412355066
0.0417616401
0.0422833846
0.0428004212
0.0433124269
0.0438190754
0.0443200365
0.0448149767
0.0453035589
0.0457854425
0.0462602837
0.0467277354
0.0471874473
0.0476390659
0.0480822347
0.0485165944
0.0489417825
0.0493574338
0.0497631806
0.0501586521
0.0505434754
0.0509172749
0.0512796725
0.051630288
0.0519687388
0.0522946404
0.0526076061
0.0529072472
0.0531931734
0.0534649925
0.0537223105
0.0539647321
0.0541918604
0.0544032973
0.0545986431
0.0547774973
0.0549394583
0.0550841233
0.0552110888
0.0553199508
0.0554103043
0.0554817439
0.055533864
0.0555662583
0.0555785206
0.0555702446
0.0555410239
0.0554904523
0.0554181239
0.0553236331
0.0552065747
0.0550665443
0.0549031382
0.0547159532
0.0545045875
0.05426864
0.0540077109
0.0537214019
0.0534093157
0.0530710568
0.0527062314
0.0523144473
0.0518953143
0.0514484442
0.0509734507
0.0504699502
0.049937561
0.0493759042
0.0487846034
0.0481632849
0.0475115779
0.0468291145
0.0461155299
0.0453704626
0.0445935543
0.0437844502
0.042942799
0.0420682533
0.0411604692
0.0402191068
0.0392438304
0.0382343084
0.0371902132
0.036111222
0.0349970161
0.0338472818
0.0326617098
0.0314399958
0.0301818404
0.0288869494
0.0275550337
0.0261858094
0.024778998
0.0233343268
0.0218515285
0.0203303413
0.0187705097
0.0171717839
0.0155339201
0.0138566808
0.0121398346
0.0103831565
0.008586428
0.00674943716
0.00487197864
0.00295385387
0.00099487113
0.00100515437
0.00304640039
0.00512903756
0.00725322929
0.00941913171
0.0116268935
0.013876656
0.0161685529
0.0185027101
0.0208792461
0.0232982713
0.0257598884
0.028264192
0.0308112688
0.0334011973
0.036034048
0.0387098828
0.0414287556
0.0441907117
0.0469957882
0.0498440135
0.0527354075
0.0556699814
0.0586477378
0.0616686704
0.0647327645
0.067839996
0.0709903323
0.0741837318
0.0774201438
0.0806995087
0.0840217577
0.0873868129
0.0907945874
0.0942449851
0.0977379004
0.101273219
0.104850817
0.10847056
0.112132307
0.115835906
0.119581195
0.123368004
0.127196153
0.131065453
0.134975704
0.138926698
0.142918219
0.146950038
0.151021919
0.155133616
0.159284874
0.163475429
0.167705005
0.171973319
0.176280079
0.180624981
0.185007715
0.189427958
0.193885382
0.198379645
0.202910399
0.207477286
0.212079939
0.21671798
0.221391025
0.226098679
0.230840537
0.235616187
0.240425207
0.245267167
0.250141627
0.255048138
0.259986244
0.264955478
0.269955367
0.274985427
0.280045167
0.285134087
0.290251678
0.295397424
0.3005708
0.305771273
0.310998302
0.316251338
0.321529824
0.326833195
0.332160878
0.337512294
0.342886855
0.348283965
0.353703022
0.359143416
0.364604529
0.370085739
0.375586414
0.381105915
0.386643598
0.392198813
0.3977709
0.403359196
0.408963029
0.414581724
0.420214598
0.42586096
0.431520118
0.43719137
0.44287401
0.448567328
0.454270606
0.459983122
0.46570415
0.471432957
0.477168807
0.482910958
0.488658665
0.494411177
0.500167739
0.505927594
0.511689979
0.517454126
0.523219267
0.528984627
0.53474943
0.540512895
0.54627424
0.552032677
0.55778742
0.563537675
0.569282649
0.575021546
0.580753567
0.586477913
0.59219378
0.597900366
0.603596864
0.609282469
0.614956372
0.620617764
0.626265837
0.631899779
0.63751878
0.643122028
0.648708713
0.654278022
0.659829144
0.665361268
0.670873584
0.676365282
0.681835553
0.687283588
0.692708581
0.698109726
0.703486218
0.708837256
0.714162039
0.719459767
0.724729644
0.729970876
0.735182671
0.74036424
0.745514796
0.750633557
0.755719741
0.760772573
0.765791278
0.770775086
0.775723232
0.780634954
0.785509493
0.790346097
0.795144015
0.799902504
0.804620823
0.809298238
0.813934019
0.818527441
0.823077785
0.827584338
0.832046391
0.836463243
0.840834198
0.845158566
0.849435662
0.853664812
0.857845343
0.861976592
0.866057902
0.870088624
0.874068115
0.87799574
0.88187087
0.885692886
0.889461176
0.893175134
0.896834165
0.900437679
0.903985097
0.907475846
0.910909364
0.914285096
0.917602496
0.920861027
0.92406016
0.927199378
0.93027817
0.933296037
0.936252486
0.939147038
0.94197922
0.94474857
0.947454638
0.950096979
0.952675164
0.955188769
0.957637383
0.960020606
0.962338047
0.964589325
0.96677407
0.968891925
0.970942541
0.97292558
0.974840717
0.976687636
0.978466033
0.980175615
0.9818161
0.983387217
0.984888707
0.986320323
0.987681827
0.988972995
0.990193613
0.99134348
0.992422405
0.993430211
0.994366729
0.995231805
0.996025297
0.996747071
0.99739701
0.997975004
0.998480959
0.998914791
0.999276427
0.999565808
0.999782886
0.999927625
1
1
0.999927625
0.999782886
0.999565808
0.999276427
0.998914791
0.998480959
0.997975004
0.99739701
0.996747071
0.996025297
0.995231805
0.994366729
0.993430211
0.992422405
0.99134348
0.990193613
0.988972995
0.987681827
0.986320323
0.984888707
0.983387217
0.9818161
0.980175615
0.978466033
0.976687636
0.974840717
0.97292558
0.970942541
0.968891925
0.96677407
0.964589325
0.962338047
0.960020606
0.957637383
0.955188769
0.952675164
0.950096979
0.947454638
0.94474857
0.94197922
0.939147038
0.936252486
0.933296037
0.93027817
0.927199378
0.92406016
0.920861027
0.917602496
0.914285096
0.910909364
0.907475846
0.903985097
0.900437679
0.896834165
0.893175134
0.889461176
0.885692886
0.88187087
0.87799574
0.874068115
0.870088624
0.866057902
0.861976592
0.857845343
0.853664812
0.849435662
0.845158566
0.840834198
0.836463243
0.832046391
0.827584338
0.823077785
0.818527441
0.813934019
0.809298238
0.804620823
0.799902504
0.795144015
0.790346097
0.785509493
0.780634954
0.775723232
0.770775086
0.765791278
0.760772573
0.755719741
0.750633557
0.745514796
0.74036424
0.735182671
0.729970876
0.724729644
0.719459767
0.714162039
0.708837256
0.703486218
0.698109726
0.692708581
0.687283588
0.681835553
0.676365282
0.670873584
0.665361268
0.659829144
0.654278022
0.648708713
0.643122028
0.63751878
0.631899779
0.626265837
0.620617764
0.614956372
0.609282469
0.603596864
0.597900366
0.59219378
0.586477913
0.580753567
0.575021546
0.569282649
0.563537675
0.55778742
0.552032677
0.54627424
0.540512895
0.53474943
0.528984627
0.523219267
0.517454126
0.511689979
0.505927594
0.500167739
0.494411177
0.488658665
0.482910958
0.477168807
0.471432957
0.46570415
0.459983122
0.454270606
0.448567328
0.44287401
0.43719137
0.431520118
0.42586096
0.420214598
0.414581724
0.408963029
0.403359196
0.3977709
0.392198813
0.386643598
0.381105915
0.375586414
0.370085739
0.364604529
0.359143416
0.353703022
0.348283965
0.342886855
0.337512294
0.332160878
0.326833195
0.321529824
0.316251338
0.310998302
0.305771273
0.3005708
0.295397424
0.290251678
0.285134087
0.280045167
0.274985427
0.269955367
0.264955478
0.259986244
0.255048138
0.250141627
0.245267167
0.240425207
0.235616187
0.230840537
0.226098679
0.221391025
0.21671798
0.212079939
0.207477286
0.202910399
0.198379645
0.193885382
0.189427958
0.185007715
0.180624981
0.176280079
0.171973319
0.167705005
0.163475429
0.159284874
0.155133616
0.151021919
0.146950038
0.142918219
0.138926698
0.134975704
0.131065453
0.127196153
0.123368004
0.119581195
0.115835906
0.112132307
0.10847056
0.104850817
0.101273219
0.0977379004
0.0942449851
0.0907945874
0.0873868129
0.0840217577
0.0806995087
0.0774201438
0.0741837318
0.0709903323
0.067839996
0.0647327645
0.0616686704
0.0586477378
0.0556699814
0.0527354075
0.0498440135
0.0469957882
0.0441907117
0.0414287556
0.0387098828
0.036034048
0.0334011973
0.0308112688
0.028264192
0.0257598884
0.0232982713
0.0208792461
0.0185027101
0.0161685529
0.013876656
0.0116268935
0.00941913171
0.00725322929
0.00512903756
0.00304640039
0.00100515437
0.00099487113
0.00295385387
0.00487197864
0.00674943716
0.008586428
0.0103831565
0.0121398346
0.0138566808
0.0155339201
0.0171717839
0.0187705097
0.0203303413
0.0218515285
0.0233343268
0.024778998
0.0261858094
0.0275550337
0.0288869494
0.0301818404
0.0314399958
0.0326617098
0.0338472818
0.0349970161
0.036111222
0.0371902132
0.0382343084
0.0392438304
0.0402191068
0.0411604692
0.0420682533
0.042942799
0.0437844502
0.0445935543
0.0453704626
0.0461155299
0.0468291145
0.0475115779
0.0481632849
0.0487846034
0.0493759042
0.049937561
0.0504699502
0.0509734507
0.0514484442
0.0518953143
0.0523144473
0.0527062314
0.0530710568
0.0534093157
0.0537214019
0.0540077109
0.05426864
0.0545045875
0.0547159532
0.0549031382
0.0550665443
0.0552065747
0.0553236331
0.0554181239
0.0554904523
0.0555410239
0.0555702446
0.0555785206
0.0555662583
0.055533864
0.0554817439
0.0554103043
0.0553199508
0.0552110888
0.0550841233
0.0549394583
0.0547774973
0.0545986431
0.0544032973
0.0541918604
0.0539647321
0.0537223105
0.0534649925
0.0531931734
0.0529072472
0.0526076061
0.0522946404
0.0519687388
0.051630288
0.0512796725
0.0509172749
0.0505434754
0.0501586521
0.0497631806
0.0493574338
0.0489417825
0.0485165944
0.0480822347
0.0476390659
0.0471874473
0.0467277354
0.0462602837
0.0457854425
0.0453035589
0.0448149767
0.0443200365
0.0438190754
0.0433124269
0.0428004212
0.0422833846
0.0417616401
0.0412355066
0.0407052993
0.0401713298
0.0396339054
0.0390933297
0.0385499021
0.0380039182
0.0374556692
0.0369054422
0.0363535202
0.0358001817
0.0352457012
0.0346903485
0.0341343894
0.0335780848
0.0330216916
0.0324654619
0.0319096433
0.031354479
0.0308002074
0.0302470623
0.029695273
0.0291450639
0.0285966549
0.0280502611
0.0275060927
0.0269643554
0.0264252499
0.0258889722
0.0253557136
0.0248256602
0.0242989938
0.0237758909
0.0232565234
0.0227410583
0.0222296577
0.0217224788
0.0212196741
0.0207213911
0.0202277726
0.0197389563
0.0192550753
0.0187762578
0.018302627
0.0178343015
0.0173713952
0.0169140168
0.0164622705
0.0160162559
0.0155760675
0.0151417953
0.0147135246
0.014291336
0.0138753055
0.0134655042
0.0130619991
0.0126648523
0.0122741214
0.0118898595
0.0115121153
0.011140933
0.0107763526
0.0104184093
0.0100671344
0.00972255481
0.00938469301
0.00905356747
0.00872919243
0.00841157802
0.0081007303
0.00779665132
0.00749933914
0.00720878789
0.00692498783
0.00664792539
0.00637758323
0.00611394028
0.00585697182
0.00560664948
0.00536294137
0.00512581209
0.00489522278
0.00467113121
0.00445349183
0.0042422558
0.00403737111
0.00383878258
0.00364643195
0.00346025796
0.00328019639
0.00310618011
0.00293813921
0.00277600097
0.00261969001
0.00246912832
0.00232423533
0.00218492798
0.00205112078
0.0019227259
0.00179965321
0.00168181038
0.00156910294
0.00146143433
0.001358706
0.00126081745
0.00116766635
0.00107914855
0.000995158206
0.000915587807
0.000840328283
0.000769269059
0.000702298131
0.000639302138
0.000580166435
0.000524775166
0.000473011336
0.000424756882
0.00037989275
0.000338298962
0.00029985469
0.000264438332
0.000231927578
0.000202199487
0.000175130554
0.000150596786
0.00012847377
0.000108636746
9.0960675e-05
7.53203133e-05
6.15902785e-05
4.96451212e-05
3.93593938e-05
3.06077193e-05
2.32648598e-05
1.72057839e-05
1.23057349e-05
8.44029687e-06
5.48546172e-06
3.31769462e-06
1.8139994e-06
8.51983185e-07
3.09920458e-07
6.68164436e-08
2.46987503e-09

shape_id 2
num_samples 1000
0.5
0
0
247
-0.5
0
0
497
0.5
0
0
247


[SIGNATURE]
# This is the hash of the Pulseq file, calculated right before the [SIGNATURE] section was added
# It can be reproduced/verified with md5sum if the file trimmed to the position right above [SIGNATURE]
# The new line character preceding [SIGNATURE] BELONGS to the signature (and needs to be stripped away for recalculating/verification)
Type md5
Hash e8229a762a0bf104b66e14b480dff641
